Sulfur Oxide (SSO)	O1S2(g)
T(K)	Cp	S	-[G-H(Tr)]/T	H-H(Tr)	delta-f H	delta-f G	log Kf
 100.00  34.286 225.094 -302.941        -7.785   -53.936         -65.275        34.095
 200.00  39.425 250.369 -270.911        -4.108   -54.998         -76.269        19.919
 250.00  41.949 259.442 -267.734        -2.073   -55.811         -81.200        16.965
 298.15  44.114 267.020 -267.020         0.000   -56.484         -86.399        15.136
 300.00  44.191 267.293 -267.020         0.082   -56.513         -86.584        15.075
 350.00  46.136 274.255 -267.566         2.341   -59.590         -91.331        13.630
 400.00  47.797 280.527 -268.800         4.691   -62.583         -96.186        12.560
 450.00  49.199 286.240 -270.425         7.116   -64.845        -100.205        11.631
 500.00  50.379 291.486 -272.273         9.607   -67.053        -104.092        10.874
 600.00  52.201 300.842 -276.274        14.741   -70.669        -111.145         9.676
 700.00  53.497 308.992 -280.378        20.029   -73.702        -117.646         8.779
 800.00  54.436 316.200 -284.414        25.429   -76.393        -123.736         8.079
 900.00  55.131 322.653 -288.311        30.909  -185.130        -127.342         7.391
1000.00  55.656 328.491 -292.041        36.449  -185.033        -120.925         6.316
1100.00  56.061 333.815 -295.600        42.036  -184.942        -114.519         5.438
1200.00  56.379 338.707 -298.992        47.658  -184.868        -108.122         4.706
1300.00  56.632 343.230 -302.223        53.309  -184.815        -101.727         4.087
1400.00  56.836 347.435 -305.304        58.983  -184.783         -95.338         3.557
1500.00  57.004 351.362 -308.245        64.676  -184.777         -88.950         3.097
1600.00  57.143 355.045 -311.056        70.383  -184.800         -82.561         2.695
1700.00  57.259 358.513 -313.747        76.103  -184.852         -76.170         2.340
1800.00  57.358 361.789 -316.325        81.834  -184.932         -69.773         2.025
1900.00  57.442 364.893 -318.801        87.574  -185.040         -63.374         1.742
2000.00  57.514 367.841 -321.180        93.322  -185.176         -56.968         1.488
2100.00  57.576 370.648 -323.469        99.077  -185.339         -50.555         1.257
2200.00  57.630 373.328 -325.675       104.837  -185.527         -44.130         1.048
2300.00  57.678 375.891 -327.803       110.603  -185.741         -37.698         0.856
2400.00  57.720 378.347 -329.858       116.373  -185.980         -31.256         0.680
2500.00  57.757 380.704 -331.845       122.146  -186.242         -24.803         0.518
2600.00  57.790 382.970 -333.768       127.924  -186.524         -18.339         0.368
2700.00  57.819 385.151 -335.631       133.704  -186.827         -11.865         0.230
2800.00  57.846 387.254 -337.437       139.488  -187.145          -5.378         0.100
2900.00  57.869 389.285 -339.190       145.273  -187.487           1.114        -0.020
3000.00  57.891 391.247 -340.893       151.061  -187.846           7.627        -0.133
3100.00  57.910 393.145 -342.548       156.851  -188.219          14.149        -0.238
3200.00  57.928 394.984 -344.158       162.643  -188.611          20.684        -0.338
3300.00  57.944 396.767 -345.726       168.437  -189.016          27.225        -0.431
3400.00  57.959 398.497 -347.252       174.232  -189.437          33.786        -0.519
3500.00  57.972 400.177 -348.741       180.029  -189.872          40.357        -0.602
3600.00  57.985 401.811 -350.192       185.827  -190.324          46.948        -0.681
3700.00  57.996 403.400 -351.609       191.626  -190.788          53.539        -0.756
3800.00  58.007 404.946 -352.992       197.426  -191.268          60.153        -0.827
3900.00  58.017 406.453 -354.344       203.227  -191.762          66.775        -0.894
4000.00  58.026 407.922 -355.665       209.029  -192.271          73.410        -0.959
4100.00  58.034 409.355 -356.957       214.832  -192.800          79.943        -1.018
4200.00  58.042 410.754 -358.221       220.636  -193.333          86.717        -1.078
4300.00  58.049 412.120 -359.459       226.440  -193.894          93.287        -1.133
4400.00  58.056 413.454 -360.671       232.246  -194.459         100.083        -1.188
4500.00  58.062 414.759 -361.859       238.052  -195.052         106.681        -1.238
4600.00  58.068 416.035 -363.022       243.858  -195.652         113.497        -1.289
4700.00  58.074 417.284 -364.164       249.665  -196.279         120.128        -1.335
4800.00  58.079 418.507 -365.283       255.473  -196.913         126.962        -1.382
4900.00  58.084 419.704 -366.382       261.281  -197.578         133.631        -1.424
5000.00  58.088 420.878 -367.460       267.090  -198.249         140.489        -1.468
5100.00  58.093 422.028 -368.519       272.899  -198.952         147.184        -1.507
5200.00  58.097 423.156 -369.559       278.708  -199.661         154.056        -1.547
5300.00  58.101 424.263 -370.580       284.518  -200.407         160.795        -1.585
5400.00  58.104 425.349 -371.584       290.328  -201.161         167.697        -1.622
5500.00  58.108 426.415 -372.572       296.139  -201.949         174.461        -1.657
5600.00  58.111 427.462 -373.543       301.950  -202.747         181.385        -1.692
5700.00  58.114 428.491 -374.498       307.761  -203.583         188.180        -1.724
5800.00  58.117 429.502 -375.437       313.573  -204.426         195.132        -1.757
5900.00  58.120 430.495 -376.362       319.385  -205.310         201.966        -1.788
6000.00  58.123 431.472 -377.272       325.197  -206.204         208.947        -1.819
