Magnesium Chloride Fluoride (MgClF)	Cl1F1Mg1(g)
T(K)	Cp	S	-[G-H(Tr)]/T	H-H(Tr)	delta-f H	delta-f G	log Kf
 100.00  38.027 212.576 -301.178        -8.860  -567.435        -569.773       297.613
 200.00  45.162 241.231 -264.656        -4.685  -568.250        -571.806       149.337
 250.00  47.875 251.612 -261.038        -2.356  -568.678        -572.477       119.610
 298.15  49.911 260.227 -260.227         0.000  -569.024        -573.384       100.452
 300.00  49.979 260.535 -260.227         0.092  -569.039        -573.410        99.838
 350.00  51.581 268.366 -260.842         2.633  -569.429        -574.043        85.669
 400.00  52.798 275.337 -262.226         5.244  -569.786        -574.755        75.054
 450.00  53.732 281.612 -264.037         7.908  -570.177        -575.327        66.781
 500.00  54.455 287.312 -266.084        10.614  -570.552        -575.909        60.164
 600.00  55.478 297.338 -270.480        16.114  -571.371        -576.904        50.223
 700.00  56.142 305.943 -274.946        21.698  -572.271        -577.757        43.112
 800.00  56.595 313.471 -279.301        27.336  -573.276        -578.474        37.770
 900.00  56.915 320.156 -283.476        33.012  -574.406        -579.057        33.607
1000.00  57.149 326.166 -287.450        38.716  -584.271        -578.794        30.233
1100.00  57.326 331.621 -291.221        44.440  -585.713        -578.177        27.455
1200.00  57.461 336.615 -294.799        50.180  -587.158        -577.428        25.134
1300.00  57.568 341.219 -298.195        55.931  -588.609        -576.559        23.166
1400.00  57.653 345.489 -301.422        61.693  -717.473        -572.409        21.356
1500.00  57.723 349.469 -304.494        67.461  -717.585        -562.044        19.572
1600.00  57.780 353.196 -307.423        73.237  -717.701        -551.672        18.010
1700.00  57.827 356.700 -310.220        79.017  -717.827        -541.291        16.632
1800.00  57.867 360.007 -312.895        84.802  -717.959        -530.904        15.406
1900.00  57.901 363.136 -315.457        90.590  -718.099        -520.507        14.309
2000.00  57.930 366.107 -317.916        96.382  -718.245        -510.104        13.322
2100.00  57.955 368.934 -320.279       102.176  -718.398        -499.694        12.429
2200.00  57.976 371.631 -322.552       107.973  -718.555        -489.275        11.617
2300.00  57.995 374.208 -324.742       113.771  -718.719        -478.848        10.875
2400.00  58.012 376.677 -326.855       119.572  -718.885        -468.416        10.195
2500.00  58.027 379.045 -328.896       125.374  -719.053        -457.978         9.569
2600.00  58.040 381.321 -330.869       131.177  -719.227        -447.531         8.991
2700.00  58.051 383.512 -332.778       136.981  -719.401        -437.078         8.456
2800.00  58.062 385.623 -334.628       142.787  -719.578        -426.619         7.959
2900.00  58.071 387.661 -336.422       148.594  -719.755        -416.153         7.496
3000.00  58.080 389.630 -338.163       154.401  -719.937        -405.680         7.063
3100.00  58.087 391.534 -339.854       160.210  -720.118        -395.199         6.659
3200.00  58.094 393.379 -341.498       166.019  -720.303        -384.718         6.280
3300.00  58.101 395.166 -343.097       171.829  -720.490        -374.227         5.923
3400.00  58.106 396.901 -344.654       177.639  -720.682        -363.729         5.588
3500.00  58.112 398.585 -346.171       183.450  -720.875        -353.230         5.272
3600.00  58.117 400.223 -347.650       189.261  -721.075        -342.721         4.973
3700.00  58.121 401.815 -349.093       195.073  -721.278        -332.213         4.690
3800.00  58.125 403.365 -350.500       200.885  -721.489        -321.688         4.422
3900.00  58.129 404.875 -351.875       206.698  -721.706        -311.164         4.167
4000.00  58.133 406.347 -353.219       212.511  -721.932        -300.640         3.926
4100.00  58.136 407.782 -354.532       218.325  -722.167        -290.101         3.696
4200.00  58.139 409.183 -355.817       224.138  -722.414        -279.562         3.477
4300.00  58.142 410.551 -357.074       229.952  -722.673        -269.017         3.268
4400.00  58.144 411.888 -358.305       235.767  -722.943        -258.463         3.068
4500.00  58.147 413.195 -359.510       241.581  -723.229        -247.899         2.877
4600.00  58.149 414.473 -360.691       247.396  -723.530        -237.339         2.695
4700.00  58.151 415.723 -361.848       253.211  -723.849        -226.761         2.520
4800.00  58.153 416.948 -362.984       259.026  -724.187        -216.183         2.353
4900.00  58.155 418.147 -364.097       264.842  -724.544        -205.591         2.192
5000.00  58.157 419.322 -365.190       270.657  -724.923        -195.002         2.037
5100.00  58.159 420.473 -366.263       276.473  -725.326        -184.397         1.889
5200.00  58.160 421.603 -367.316       282.289  -725.752        -173.790         1.746
5300.00  58.162 422.710 -368.351       288.105  -726.204        -163.169         1.608
5400.00  58.163 423.798 -369.368       293.922  -726.682        -152.541         1.476
5500.00  58.165 424.865 -370.367       299.738  -727.190        -141.908         1.348
5600.00  58.166 425.913 -371.350       305.554  -727.729        -131.258         1.224
5700.00  58.167 426.942 -372.316       311.371  -728.298        -120.605         1.105
5800.00  58.168 427.954 -373.267       317.188  -728.899        -109.940         0.990
5900.00  58.169 428.948 -374.202       323.005  -729.536         -99.260         0.879
6000.00  58.170 429.926 -375.122       328.822  -730.207         -88.568         0.771
